[0.5020600000000001, 0.5421600000000001, 0.72238, 1.4289, 2.1365, 2.2811, 1.9363, 1.4689, 1.0088, 0.38028, -0.29678000000000004, -0.51393, -0.25564000000000003, -0.1072, -0.28783000000000003, -0.41801000000000005, -0.31916, -0.26038, -0.35036, -0.50549, -0.7108899999999999, -0.8239200000000001, -0.8997, -1.1539, -1.2298, -1.0441, -1.202, -1.3922, -1.1301, -1.1799, -1.6493, -1.7266, -1.6084, -1.6628, -1.6507, -1.6973, -1.8387, -1.8026, -1.7805, -1.8252, -1.6448, -1.4238, -1.3922, -1.3604, -1.2002, -0.91863, -0.68592]
[-0.7290800000000001, -0.90694, -0.8709600000000001, -1.0602, -1.198, -0.9816, -1.2725, -1.2874, -1.2767, -1.5397, -1.3466, -1.5352, -1.7634, -1.6888, -1.8094, -1.8639, -1.9945, -1.8898, -1.9257, -1.8336, -1.6618, -1.3425, -1.0113, -0.67272, -0.21616, 0.052872, 0.56209, 0.7008800000000001, 0.9469299999999999, 1.005, 1.0275, 1.1917, 0.96886, 0.84462, 0.77949, 0.7439399999999999, 0.67335, 0.5052800000000001, 0.66255, 0.6077, 0.5461, 0.68716, 0.5429999999999999, 0.45315, 0.48578000000000005, 0.44068, 0.53915, 0.36956999999999995]
[-1.6991, -1.5042, -2.0016, -1.8574, -1.9543, -1.7167, -2.1675, -1.6749, -1.8146, -1.5074, -0.9997, -1.0499, -0.51485, -0.29835, 0.12888, 0.37943000000000005, 0.4746, 0.60647, 1.0355, 0.9076, 1.0429, 0.91986, 1.1408, 0.8501700000000001, 0.78689, 1.0158, 0.78088, 0.80101, 0.6562100000000001, 0.69618, 0.6779, 0.90151, 0.65492, 0.81448, 0.85914]
[-0.45278, -0.78509, -0.8285299999999999, -0.82657, -0.9735, -1.1701, -1.1505, -1.2575, -1.4204, -1.4846, -1.4658, -1.3779, -1.6042, -1.7756, -1.7615, -2.0809, -2.2271, -1.9579, -2.109, -1.8941, -1.8003, -1.4642, -1.0481, -0.89518, -0.4907, -0.017317, 0.20345, 0.27883, 0.67502, 0.6551100000000001, 0.6804899999999999, 0.71908, 0.72019, 0.6560199999999999, 0.53604, 0.66837, 0.68619, 0.55905, 0.56085, 0.65965, 0.70941, 0.61548, 0.63126, 0.56742, 0.40071, 0.45703999999999995, 0.5083, 0.4118]
[-0.59212, -0.6401899999999999, -0.58381, -1.0218, -0.8724799999999999, -0.9781799999999999, -1.0883, -1.061, -1.2332, -1.3974, -1.4202, -1.2854, -1.6193, -1.6767, -1.5017, -1.6669, -1.8557, -1.9269, -1.5274, -1.6123, -1.6619, -1.2215, -1.0314, -0.56223, -0.14094, -0.044414999999999996, 0.4079, 0.64344, 0.5270100000000001, 0.9639200000000001, 1.1173, 0.86715, 1.1099, 0.9482200000000001, 0.9059799999999999, 0.8093, 0.86301, 0.7680100000000001, 0.5785899999999999, 0.8372700000000001, 0.42244, 0.55999, 0.74247, 0.5506800000000001, 0.5251100000000001, 0.63925, 0.47648, 0.39719]
[2.0014, 2.504, 2.4542, 2.2203, 2.1224, 1.9165, 1.3821, 0.73545, 0.22086, -0.048817, 0.058892999999999994, 0.37064, 0.35393, -0.05694, -0.27015, -0.030288, 0.18392999999999998, 0.034145999999999996, -0.18552000000000002, -0.17694000000000001, -0.14089000000000002, -0.33826999999999996, -0.56328, -0.53184, -0.39903, -0.47085, -0.6988800000000001, -0.8642200000000001, -0.9254399999999999]
[-1.4695, -1.4964, -1.4125, -1.5678, -1.9121, -1.9972, -1.7389, -1.5818, -1.7166, -1.798, -1.6296, -1.4509999999999998, -1.4278, -1.4234, -1.3124, -1.1325, -0.9296399999999999, -0.71797, -0.53865, -0.41702, -0.29452, -0.13418, -0.029799000000000003, -0.047162, -0.059705999999999995, 0.087575, 0.29596999999999996, 0.35727, 0.3053, 0.35968, 0.5363100000000001, 0.6059899999999999, 0.52141, 0.49248000000000003, 0.56384, 0.5487, 0.45978, 0.5321, 0.75308, 0.84652, 0.7551399999999999, 0.69977, 0.7367600000000001, 0.65963, 0.4589, 0.42428, 0.57515, 0.55919, 0.35328000000000004, 0.35802, 0.6058899999999999, 0.71096, 0.61971, 0.56493, 0.55611]
[-1.2016, -1.4695, -1.4964, -1.4125, -1.5678, -1.9121, -1.9972, -1.7389, -1.5818, -1.7166, -1.798, -1.6296, -1.4509999999999998, -1.4278, -1.4234, -1.3124, -1.1325, -0.9296399999999999, -0.71797, -0.53865, -0.41702, -0.29452, -0.13418, -0.029799000000000003, -0.047162, -0.059705999999999995, 0.087575, 0.29596999999999996, 0.35727, 0.3053, 0.35968, 0.5363100000000001, 0.6059899999999999, 0.52141, 0.49248000000000003, 0.56384, 0.5487, 0.45978, 0.5321, 0.75308, 0.84652, 0.7551399999999999, 0.69977, 0.7367600000000001, 0.65963, 0.4589, 0.42428, 0.57515, 0.55919, 0.35328000000000004, 0.35802, 0.6058899999999999, 0.71096, 0.61971, 0.56493, 0.55611]
[-0.37917, -0.52318, -0.7183, -0.7135699999999999, -0.8204100000000001, -0.85969, -1.0077, -1.1346, -1.0715, -1.1278, -1.3159999999999998, -1.5014, -1.5052, -1.6539, -1.8809, -1.8101, -1.8814, -1.9864, -1.9803, -1.7677, -1.4317, -1.2489, -0.92451, -0.49763, -0.15127000000000002, 0.19644, 0.36146, 0.52482, 0.78185, 0.85575, 0.868, 0.82625, 0.78078, 0.72519, 0.65159, 0.6555, 0.52495, 0.56875, 0.72006, 0.57296, 0.50084, 0.49536, 0.5149, 0.5163800000000001, 0.40598, 0.42213999999999996, 0.41079, 0.31947]
[-0.62012, -1.0453, -1.041, -0.6187, -1.1784, -1.1975, -1.0881, -1.3817, -1.2972, -1.3249, -1.5013, -1.6616, -1.8334, -1.8142, -1.6741, -1.8588, -1.9986, -2.0456, -1.8968, -1.6344, -1.3430000000000002, -1.1657, -0.90722, -0.50203, -0.14390999999999998, 0.20306, 0.67386, 0.7046399999999999, 0.6368699999999999, 1.1167, 0.66957, 1.1392, 1.2433, 0.77798, 0.93666, 0.70713, 0.88869, 0.9201, 0.7458100000000001, 0.6580600000000001, 0.40539000000000003, 0.8296600000000001, 0.74841, 0.58095, 0.62708, 0.48056000000000004, 0.5655899999999999, 0.66788]
[-0.5365800000000001, -0.75627, -0.8623700000000001, -0.9221799999999999, -0.9172399999999999, -1.034, -1.0889, -1.1076, -1.1773, -1.3366, -1.5629, -1.4417, -1.525, -1.8071, -1.9285, -1.9497, -1.8198, -1.758, -1.7317, -1.6749, -1.3019999999999998, -1.0402, -0.7638699999999999, -0.34105, -0.1628, 0.24013, 0.31242, 0.53647, 1.0895, 0.8327899999999999, 0.81901, 0.90212, 0.79194, 0.8896299999999999, 0.77247, 0.7469899999999999, 0.6654, 0.52013, 0.7012, 0.8264299999999999, 0.66509, 0.42308999999999997, 0.68347, 0.77858, 0.36477, 0.65741, 0.90881, 0.72743]
[1.0881, 1.564, 1.3689, 1.2502, 1.4915, 1.6826, 1.227, 0.34397, -0.33532, -0.72932, -0.9497200000000001, -1.0159, -1.0659999999999998, -1.1634, -1.2075, -1.2347, -1.3248, -1.3649, -1.3312, -1.3564, -1.3705, -1.3339, -1.3782, -1.3953, -1.401, -1.492, -1.5030000000000001, -1.5535, -1.5989, -1.4646]
[-0.99485, -0.81096, -0.74245, -1.0151, -1.0731, -0.8563799999999999, -1.0931, -1.5145, -1.3942, -1.1909, -1.5411, -1.8867, -1.7608, -1.9166, -2.0768, -1.7355, -1.9185, -2.1974, -1.7579, -1.5190000000000001, -1.5855, -1.3945, -1.0033, -0.69067, -0.48888000000000004, -0.1174, 0.25205, 0.15335, 0.13985, 0.5504600000000001, 0.54732, 0.3191, 0.50851, 0.6245, 0.59734, 0.61482, 0.47971, 0.46921, 0.6392100000000001, 0.49067, 0.33889, 0.51169, 0.58298, 0.50137, 0.44553000000000004, 0.49031, 0.5706399999999999, 0.5494399999999999]
[-0.10048, -0.44661999999999996, -0.94101, -0.71327, -0.80758, -0.9597600000000001, -1.023, -1.2077, -1.2411, -1.3355, -1.5214, -1.5576, -1.5766, -1.7348, -1.9569, -1.7296, -2.0989, -1.7149, -1.7751, -1.6744, -1.3308, -1.2738, -0.6654800000000001, -0.69212, -0.25276, 0.077725, 0.041614, 0.47523000000000004, 0.80392, 0.9185, 1.1075, 0.77581, 1.0528, 1.012, 0.72444, 0.9548399999999999, 0.6382, 0.8032100000000001, 0.80865, 0.35049, 0.59308, 0.81394, 0.63893, 0.46193, 1.395, 0.2408, 0.058936, 0.80172]
[-0.68381, -0.85529, -0.87182, -0.9746299999999999, -1.068, -1.0048, -1.1565, -1.2207, -1.3067, -1.4449, -1.4511, -1.6627, -1.7536, -1.7558, -1.9269999999999998, -2.0733, -2.1305, -2.1626, -2.1702, -2.0143, -1.7349, -1.472, -1.1195, -0.67855, -0.24605, 0.17243, 0.48752, 0.72219, 0.8789600000000001, 0.8577, 0.8947, 0.9304600000000001, 0.7477600000000001, 0.67615, 0.71573, 0.6937800000000001, 0.65056, 0.65601, 0.6973699999999999, 0.72207, 0.7448100000000001, 0.6891, 0.6817, 0.70529, 0.67209, 0.6661199999999999, 0.60663, 0.68662]
[-0.3379, -0.77755, -0.72412, -0.70891, -0.9008299999999999, -0.9268200000000001, -1.2062, -1.2043, -1.2901, -1.4926, -1.4695, -1.6203, -1.9642, -2.1405, -2.2356, -2.1912, -2.4191, -2.3834, -2.3353, -2.4091, -1.7281, -1.5081, -1.1367, -0.5967899999999999, -0.42528, 0.049137, 0.33934000000000003, 0.59512, 0.8145600000000001, 0.51347, 0.7409399999999999, 0.8262799999999999, 0.52164, 0.6954199999999999, 0.64174, 0.5767899999999999, 0.58165, 0.6270100000000001, 0.64005, 0.6336, 0.45196000000000003, 0.75508, 0.64088, 0.5253800000000001, 0.66579, 0.42517, 0.5696100000000001, 0.63777]
[-0.9579, -0.09617300000000001, -0.31173, -0.74358, -0.8732, -1.0823, -0.6393300000000001, -1.4214, -1.8848, -0.75448, -1.2973, -2.541, -2.3123, -2.0156, -2.2682, -2.6172, -2.4111, -2.182, -2.1904, -2.1645, -1.7266, -1.1703, -1.2693, -1.1404, -0.22605, 0.29835, 0.22685999999999998, 0.39091, 0.71562, 0.77004, 0.8656299999999999, 1.0803, 1.0446, 0.7044, 0.8499899999999999, 1.2178, 0.7601100000000001, 0.46583, 0.9120799999999999, 0.9351700000000001, 0.63412, 0.59564, 0.70628, 0.9128299999999999, 0.82768, 0.61224, 0.95405, 0.9756100000000001]
[-0.64468, -0.80723, -0.78745, -0.89935, -0.99303, -1.1099, -1.1504, -1.2723, -1.3851, -1.4737, -1.5216, -1.6191, -1.8409, -1.7669, -1.9956, -2.1403, -1.9179, -1.9873, -1.8178, -1.7714, -1.4208, -0.9947799999999999, -0.73745, -0.36325999999999997, 0.011137000000000001, 0.37642, 0.45803999999999995, 0.68402, 0.78141, 0.8042, 0.77813, 0.86546, 0.73073, 0.58541, 0.65586, 0.60165, 0.60568, 0.53662, 0.53258, 0.63598, 0.531, 0.5595, 0.5494100000000001, 0.5006, 0.49217, 0.42445, 0.46237, 0.33621]
[-0.43523999999999996, -0.64468, -0.80723, -0.78745, -0.89935, -0.99303, -1.1099, -1.1504, -1.2723, -1.3851, -1.4737, -1.5216, -1.6191, -1.8409, -1.7669, -1.9956, -2.1403, -1.9179, -1.9873, -1.8178, -1.7714, -1.4208, -0.9947799999999999, -0.73745, -0.36325999999999997, 0.011137000000000001, 0.37642, 0.45803999999999995, 0.68402, 0.78141, 0.8042, 0.77813, 0.86546, 0.73073, 0.58541, 0.65586, 0.60165, 0.60568, 0.53662, 0.53258, 0.63598, 0.531, 0.5595, 0.5494100000000001, 0.5006, 0.49217, 0.42445, 0.46237]
[-0.5171600000000001, -0.68467, -0.7512, -0.83014, -0.72801, -0.91879, -1.187, -0.83873, -0.9895799999999999, -1.3975, -1.3019999999999998, -1.4222, -1.6338, -1.6512, -1.7824, -1.8822, -1.9509, -1.8056, -1.7426, -1.4715, -1.4032, -1.1495, -0.7558699999999999, -0.56482, 0.058797, 0.04651, 0.045873000000000004, 0.48199, 0.7753800000000001, 0.56919, 0.91359, 0.9546899999999999, 1.0054, 1.0378, 0.80607, 0.85119, 0.82395, 0.71311, 0.6045, 0.72207, 0.57987, 0.52553, 0.49672, 0.6210399999999999, 0.5106, 0.64136, 0.55111, 0.33226999999999995]
[-0.57443, -0.62492, -0.71273, -0.87725, -0.86311, -0.94895, -1.0919, -1.1544, -1.1557, -1.2367, -1.4393, -1.5329, -1.5506, -1.6974, -1.929, -1.8859, -1.9789, -1.9855, -1.9681, -1.8771, -1.6103, -1.4228, -1.0421, -0.65191, -0.38674000000000003, -0.02474, 0.34191, 0.53081, 0.5239, 0.71934, 0.83719, 0.74033, 0.75742, 0.7084, 0.6771, 0.5996199999999999, 0.5290199999999999, 0.61908, 0.5918100000000001, 0.50107, 0.5112399999999999, 0.55878, 0.44073999999999997, 0.48503, 0.50189, 0.46096000000000004, 0.39988, 0.40445]
[-0.68503, -0.9491200000000001, -1.0395, -1.169, -1.1913, -0.9059200000000001, -1.3047, -1.4367, -1.4287, -1.6121, -1.6179, -1.7272, -1.6543, -1.8647, -2.0437, -1.7882, -1.9843, -2.1426, -1.4607, -1.7978, -1.4781, -1.2309, -0.7982199999999999, -0.023288, -0.47024, 0.15581, 0.59327, 0.79328, 0.8835299999999999, 0.9873299999999999, 1.1384, 0.9823200000000001, 1.001, 0.8316399999999999, 0.90999, 0.84625, 0.64582, 0.6967800000000001, 0.6926800000000001, 0.81808, 0.50116, 0.57805, 0.64159, 0.65313, 0.47728000000000004, 0.49205, 0.76713, 0.53486]
[-1.7848, -1.8723, -1.8907, -1.7788, -1.7102, -1.8413, -1.8898, -1.7258, -1.6545, -1.6172, -1.3333, -1.0711, -1.0533, -0.9457, -0.6480899999999999, -0.46395, -0.44028999999999996, -0.37801, -0.17974, 0.06804199999999999, 0.16977, 0.13235999999999998, 0.20540999999999998, 0.39916, 0.49643000000000004, 0.51252, 0.56105, 0.60313, 0.65652, 0.74428, 0.74382, 0.66879, 0.6755800000000001, 0.72365, 0.72222, 0.77218, 0.8871899999999999, 0.88715, 0.77645, 0.76293, 0.81155, 0.68923, 0.483, 0.53688]
[-0.8648899999999999, -0.70355, -0.8933200000000001, -0.9996200000000001, -1.0895, -1.0715, -1.0801, -1.3339, -1.3746, -1.4982, -1.5102, -1.5827, -1.8217, -1.6917, -1.8294, -1.8668, -1.9627, -1.9314, -1.7372, -1.8744, -1.6583, -1.2063, -0.98844, -0.67383, -0.31351, 0.048131, 0.36885, 0.56314, 0.71851, 0.90009, 1.0479, 1.043, 0.8995299999999999, 1.0279, 1.0264, 0.91264, 0.62389, 0.77581, 0.90055, 0.51607, 0.8411700000000001, 0.5777800000000001, 0.5340199999999999, 0.80116, 0.68692, 0.58087, 0.49763, 0.4502]
[-0.58496, -0.44436000000000003, -0.36682, -0.4038, -0.61566, -0.8337899999999999, -1.025, -1.2013, -1.3763, -1.4132, -1.4878, -1.7931, -1.8547, -2.0737, -2.0869, -2.0074, -2.1525, -2.0921, -2.0312, -1.8833, -1.5726, -1.3059, -1.002, -0.5330199999999999, -0.10067000000000001, 0.10166, 0.42403, 0.6521399999999999, 0.77169, 0.9143899999999999, 0.80432, 0.8012699999999999, 0.69083, 0.61021, 0.70913, 0.65099, 0.62584, 0.63503, 0.62785, 0.67702, 0.74059, 0.76569, 0.75748, 0.63137, 0.55038, 0.57019, 0.47303, 0.38275]
[-0.6048899999999999, -0.64773, -0.81838, -0.9005, -0.89676, -0.9446100000000001, -1.0836, -1.2033, -1.225, -1.3277, -1.5291, -1.6049, -1.6701, -1.883, -1.9135, -1.9652, -2.0614, -2.0139, -1.9867, -1.7923, -1.5801, -1.329, -0.8965200000000001, -0.55238, -0.26008000000000003, 0.051494000000000005, 0.33432, 0.5270100000000001, 0.6398199999999999, 0.72895, 0.74236, 0.6969, 0.7067899999999999, 0.61882, 0.59308, 0.60875, 0.56288, 0.60347, 0.53785, 0.51812, 0.5963, 0.52433, 0.50674, 0.5012300000000001, 0.4816, 0.47713, 0.36448, 0.42906000000000005]
[-0.67576, -0.92615, -0.9431299999999999, -0.9980399999999999, -1.0255, -1.1094, -1.2708, -1.1802, -1.4133, -1.5290000000000001, -1.4712, -1.6988, -1.6617, -1.7457, -1.9473, -1.9375, -2.0974, -2.0954, -1.8554, -1.8461, -1.7779, -1.2026, -0.75234, -0.49988, -0.037613, 0.31937, 0.6161800000000001, 0.74958, 0.87424, 1.0046, 0.89485, 0.9815, 0.89402, 0.6917300000000001, 0.64798, 0.58825, 0.66833, 0.66425, 0.52642, 0.54798, 0.62125, 0.5606899999999999, 0.49562, 0.48645, 0.6427, 0.5121399999999999, 0.39921999999999996, 0.50185]
[-0.9046700000000001, -0.8649, -0.9272299999999999, -1.0822, -1.0179, -1.0157, -1.2161, -1.3557, -1.3605, -1.5027, -1.6789, -1.744, -1.8177, -1.9648, -1.9914, -2.1455, -2.0927, -1.8876, -1.9263, -1.7072, -1.4208, -1.2455, -0.8884, -0.47776, -0.09904400000000001, 0.18899000000000002, 0.4566, 0.68389, 0.9001, 0.94101, 0.94947, 0.9989299999999999, 0.9489700000000001, 0.82744, 0.78173, 0.7118899999999999, 0.6482399999999999, 0.69262, 0.56481, 0.4946, 0.6512600000000001, 0.5868899999999999, 0.39271999999999996, 0.46808999999999995, 0.59619, 0.48343, 0.52307, 0.51375]
[-0.88154, -0.88056, -0.9367700000000001, -1.0416, -1.1712, -1.0859, -1.1249, -1.3186, -1.4501, -1.4574, -1.4786, -1.6754, -1.729, -2.002, -2.0564, -2.0999, -2.1469, -2.0228, -2.0072, -2.0074, -1.5997, -1.2477, -1.0343, -0.58501, -0.23800000000000002, 0.048785, 0.27358000000000005, 0.41883000000000004, 0.64275, 0.684, 0.7032, 0.78273, 0.75176, 0.6388, 0.58432, 0.66918, 0.63541, 0.59267, 0.62952, 0.63589, 0.59991, 0.5170399999999999, 0.62039, 0.5481699999999999, 0.5909, 0.4871, 0.51183, 0.51281]
[-0.7155199999999999, -0.9443799999999999, -0.79628, -0.97295, -1.1059, -1.1304, -1.3638, -1.1811, -1.3503, -1.6052, -1.4907, -1.6388, -1.7028, -1.9761, -1.9501, -1.8605, -2.3428, -1.9824, -1.5832, -1.8471, -1.682, -1.4608, -1.2977, -0.55793, -0.38097, -0.3114, 0.35316, 0.31505, 0.62622, 1.0198, 0.81319, 1.0338, 1.0255, 1.0324, 1.1788, 0.74439, 0.8174399999999999, 0.8808799999999999, 0.5784600000000001, 0.78843, 0.63661, 0.4124, 0.61824, 0.6419, 0.64007, 0.48912, 0.41201000000000004, 0.6766800000000001]
[-0.39748, -0.6926, -0.67264, -0.7059300000000001, -0.83698, -0.8541, -1.0416, -0.9717899999999999, -1.1959, -1.4385, -1.2723, -1.4633, -1.5424, -1.5671, -1.7617, -1.8428, -1.6367, -1.7919999999999998, -1.8138, -1.5141, -1.4983, -1.2834, -1.0093, -0.63408, -0.21875999999999998, -0.06367300000000001, 0.18070999999999998, 0.40228, 0.68323, 0.59287, 0.9400299999999999, 0.98085, 0.77389, 0.8752200000000001, 0.77837, 0.79599, 0.68324, 0.54214, 0.64059, 0.5092300000000001, 0.49928999999999996, 0.55353, 0.47594, 0.60663, 0.54056, 0.5230899999999999, 0.34663, 0.42163]
[-0.85315, -0.7964100000000001, -0.7419899999999999, -0.95344, -1.0306, -0.98844, -1.1126, -1.2711, -1.2987, -1.3884, -1.5145, -1.6666, -1.784, -1.8865, -2.0475, -2.1838, -2.1545, -2.1857, -2.0937, -1.9739, -1.6681, -1.1974, -0.98879, -0.63067, -0.11765, 0.14002, 0.34386, 0.57523, 0.6877, 0.74875, 0.69004, 0.7538699999999999, 0.77483, 0.6652899999999999, 0.6254, 0.64566, 0.61851, 0.6060399999999999, 0.63943, 0.64645, 0.64086, 0.5534100000000001, 0.58248, 0.5894, 0.61619, 0.49228999999999995, 0.48718999999999996, 0.48858]
[-0.6125, -0.7743800000000001, -0.62467, -0.8705799999999999, -0.96719, -0.9790399999999999, -1.1457, -1.0789, -1.3019999999999998, -1.4584, -1.431, -1.6022, -1.6908, -1.7543, -1.7397, -1.9577, -1.9801, -1.8879, -1.8733, -1.6836, -1.439, -1.1539, -0.6645399999999999, -0.39579000000000003, -0.17948, 0.37501, 0.4911, 0.55338, 0.77381, 0.78655, 0.7603800000000001, 0.77982, 0.6783600000000001, 0.64907, 0.62813, 0.50539, 0.5161399999999999, 0.50938, 0.44309, 0.43775, 0.50859, 0.5583899999999999, 0.41194, 0.5058699999999999, 0.4197, 0.39749, 0.4281, 0.33316999999999997]
[-0.93104, -0.6933199999999999, -0.68116, -1.0851, -1.2432, -0.9582, -1.2711, -1.3249, -1.3877, -1.3869, -1.5891, -1.6979, -1.2655, -2.0391, -1.8232, -1.743, -2.142, -1.6471, -2.0624, -2.0292, -1.2299, -1.3726, -1.0862, -0.68923, -0.37195, 0.049285, 0.29081999999999997, 0.6988, 0.7611100000000001, 0.9565899999999999, 0.88487, 1.3255, 1.1217, 0.85714, 0.8283799999999999, 0.7703399999999999, 1.0531, 0.66661, 0.33453, 0.57658, 0.72305, 0.48691, 0.43315, 0.73477, 0.47376999999999997, 0.56453, 0.29504, 0.5795100000000001]
[-0.6784899999999999, -0.6666, -0.72721, -0.7721, -0.88131, -0.84969, -1.2678, -1.2195, -1.1338, -1.4279, -1.5643, -1.8216, -1.7485, -1.929, -2.1355, -2.2464, -2.2156, -2.1511, -2.3312, -1.9414, -1.5425, -1.3926, -0.94052, -0.62263, -0.14432, 0.32855999999999996, 0.56987, 0.9991399999999999, 0.96786, 0.83334, 1.2204, 1.0759, 0.9554, 1.0877, 0.86272, 0.73645, 0.8579399999999999, 0.78105, 0.8423799999999999, 0.8126899999999999, 0.65458, 1.0122, 0.85269, 0.61353, 0.83037, 0.74648, 0.55807, 0.73411]
[-0.32042, -0.46188, -0.55545, -0.66719, -0.74946, -0.88505, -0.98085, -1.0631, -1.0495, -1.1251, -1.518, -1.4809, -1.5101, -1.6478, -1.7578, -1.8027, -1.7923, -1.8688, -1.7035, -1.5779, -1.3327, -1.1428, -0.9810700000000001, -0.24034, -0.14657, 0.034651999999999995, 0.60722, 0.48034, 0.8805200000000001, 0.8314600000000001, 0.88195, 1.0551, 1.0052, 0.92835, 0.8221, 0.8376299999999999, 0.7933100000000001, 0.64607, 0.5825199999999999, 0.6523800000000001, 0.52281, 0.47384, 0.56196, 0.58332, 0.52856, 0.40636, 0.49938999999999995, 0.41738000000000003]
[-0.67366, -0.9168200000000001, -0.90128, -0.9931, -0.93581, -1.2372, -1.1273, -1.2827, -1.5474, -1.4292, -1.4337, -1.454, -1.829, -1.9819, -1.8779, -2.0599, -1.9538, -1.8248, -1.9793, -1.2837, -1.4264, -1.4781, -0.78745, -0.60358, -0.24979, -0.022741, 0.39848, 0.67979, 0.73842, 1.078, 0.9662700000000001, 0.9901200000000001, 1.1602, 1.0158, 0.94281, 0.8637, 0.75727, 0.57539, 0.66074, 0.88336, 0.57994, 0.54937, 0.75627, 0.52776, 0.50517, 0.62776, 0.64242, 0.6113]
[-0.51069, -0.56288, -0.7054199999999999, -0.7502800000000001, -0.8906299999999999, -0.8420700000000001, -0.83652, -1.1819, -1.1828, -1.1317, -1.284, -1.5165, -1.6958, -1.6966, -1.7925, -1.8976, -1.8772, -1.7712, -1.663, -1.5372, -1.291, -1.0182, -0.70705, -0.55455, -0.21020999999999998, 0.23041, 0.20546, 0.44585, 0.6062, 0.74693, 0.72645, 0.8256399999999999, 0.9893, 0.79615, 0.6380899999999999, 0.60042, 0.75238, 0.7115600000000001, 0.46213999999999994, 0.48055, 0.60995, 0.7106899999999999, 0.41262, 0.45536000000000004, 0.58211, 0.44616000000000006, 0.4249, 0.385]
[-0.33994, -1.0062, -0.5989899999999999, -0.5297, -1.1856, -1.0053, -0.8987700000000001, -1.0918, -1.4072, -1.4293, -1.625, -1.5733, -1.9192, -1.7484, -1.8058, -1.8972, -1.7293, -2.2692, -1.7849, -1.746, -1.7475, -0.7299899999999999, -0.8441799999999999, -0.42672, -0.26634, -0.07950700000000001, 1.1773, 0.73348, 0.65013, 1.1788, 1.079, 0.94115, 1.0896, 1.1171, 0.8148, 1.3428, 0.60502, 0.87274, 0.51232, 0.7249, 1.0885, 0.7741100000000001, 0.7087100000000001, 0.7915300000000001, 0.70991, 0.48996999999999996, 0.78994, 0.50127]
[-0.69287, -0.89371, -0.50979, -0.85662, -0.8845200000000001, -0.93822, -1.2569, -1.0658, -1.2761, -1.2851, -1.4805, -1.6129, -1.4955, -2.0529, -1.6417, -1.7385, -1.8949, -1.7296, -2.1027, -1.3989, -1.1161, -1.3826, -1.0009, -0.45116000000000006, -0.11216, -0.12544, 0.38431, 0.52268, 0.64023, 0.8368, 0.91335, 0.9737399999999999, 0.85506, 0.9168299999999999, 0.7895399999999999, 0.816, 0.76457, 0.49983, 0.65677, 0.57289, 0.6148399999999999, 0.5409, 0.39078, 0.47798, 0.37672, 0.56613, 0.32403000000000004, 0.24478000000000003]
[1.2604, 1.2207, 1.0665, 1.0374, 1.0281, 0.87634, 0.71833, 0.5664600000000001, 0.44232, 0.42798, 0.40983, 0.36089, 0.35149, 0.32015, 0.28117, 0.30649, 0.30456, 0.23258, 0.23221, 0.27865, 0.22146, 0.19772, 0.30678, 0.34048, 0.25722, 0.15949000000000002, 0.08237699999999999, 0.13272, 0.25138, 0.24409, 0.15267]
[-0.35719, -0.72213, -0.7347, -1.0181, -0.68483, -0.92543, -1.1036, -1.2606, -1.0173, -1.1808, -1.726, -1.4324, -1.9683, -1.5941, -1.4786, -2.3515, -1.7502, -1.9623, -1.8715, -1.5807, -1.5556, -1.1898, -1.0205, -0.40817, -0.093372, 0.26726, 0.45376000000000005, 0.34083, 1.0665, 1.0429, 0.84211, 0.9401700000000001, 0.9839399999999999, 0.977, 0.81587, 0.7779, 0.8186100000000001, 0.4723, 0.5460699999999999, 0.71133, 0.34545, 0.59042, 0.45653999999999995, 0.37054000000000004, 0.8517899999999999, 0.22274000000000002, 0.39841, 0.2846]
[-1.6004, -1.6351, -1.6498, -1.472, -1.1759, -1.005, -0.9703, -0.88095, -0.73202, -0.63995, -0.52509, -0.28097, -0.062384, -0.02195, -0.019032, 0.10382999999999999, 0.2438, 0.23786999999999997, 0.1565, 0.19093, 0.35307, 0.50156, 0.54418, 0.48843000000000003, 0.44293000000000005, 0.54724, 0.71846, 0.70816, 0.57933, 0.62876, 0.79178, 0.76626, 0.61006, 0.60153]
[-1.0472, 0.15702, -0.22123, 0.019547, 0.053035, -0.16330999999999998, -0.3669, -0.95737, -1.1039, -1.3409, -1.037, -1.2843, -1.3641, -1.2792, -1.4002, -1.4080000000000001, -1.4693, -1.6919, -1.6782, -1.4673, -1.8245, -1.9068, -1.9299, -1.7127, -1.8947, -1.9376, -1.6380000000000001, -1.7445, -1.433, -1.2872, -1.2158, -0.68493, -0.37072, -0.23453000000000002, -0.086409, 0.27394, 0.38104, 0.65395, 0.51986, 0.67703, 0.89187, 0.76913, 0.6986600000000001, 0.77491, 0.84246, 0.70445, 0.72742, 0.59632, 0.64563, 0.86459, 0.66525, 0.6239399999999999, 0.47121, 0.82291, 0.87045, 0.5284, 0.70167, 0.7608, 0.66405, 0.65785, 0.6582600000000001, 0.7522300000000001, 0.6794600000000001, 0.49665, 0.70567, 0.49551000000000006, 0.88177, 0.95525, 1.1016, 1.2254, 0.85129, 1.0112, 0.66294, 0.5452100000000001, 0.7714300000000001, 0.37383, 0.3646, 0.37565, 0.40421, 0.45485]
[-0.59624, -0.9591200000000001, -0.8567, -0.9924200000000001, -1.0889, -1.0417, -1.1048, -1.2596, -1.3323, -1.4336, -1.5878, -1.6363, -1.581, -1.885, -1.8502, -1.5605, -2.1587, -1.895, -1.5887, -1.7735, -1.4501, -1.2622, -0.6652100000000001, -0.17823, 0.036123, 0.41653999999999997, 0.54832, 0.6683600000000001, 0.7729699999999999, 0.8717600000000001, 1.0228, 1.0639, 0.8727799999999999, 0.67065, 1.0432, 0.8476100000000001, 0.49512, 0.76567, 0.55919, 0.6748, 0.59264, 0.49201999999999996, 0.70914, 0.62153, 0.49031, 0.54992, 0.65918, 0.49548000000000003]
[-1.0197, -0.9951700000000001, -1.038, -1.1637, -1.2911, -1.3996, -1.5005, -1.6018, -1.7099, -1.8377, -1.9208, -1.8714, -1.7292, -1.6523, -1.6688, -1.6355, -1.4815, -1.3322, -1.2595, -1.1468, -0.91981, -0.74242, -0.75551, -0.80982, -0.62679, -0.20323, 0.18067, 0.31911999999999996, 0.33352, 0.43706999999999996, 0.62131, 0.68982, 0.62939, 0.65612, 0.88433, 1.1111, 1.1367, 1.0437, 1.0241, 1.0437, 0.95552, 0.79092, 0.7511, 0.89202, 1.0497, 1.0605, 0.9663799999999999, 0.9088700000000001, 0.9314399999999999, 0.94257, 0.88623, 0.84147]
[-0.79393, -0.97711, -0.64542, -0.7573300000000001, -1.0511, -0.9709899999999999, -1.206, -1.3835, -1.2445, -1.3142, -1.4773, -1.6715, -1.7353, -1.6106, -1.7342, -1.9516, -1.7901, -1.6198, -1.6608, -1.5338, -1.3233, -1.2214, -1.0461, -0.68745, -0.37534, -0.29541999999999996, -0.14325, 0.12980999999999998, 0.28452, 0.36461, 0.40489, 0.40548, 0.4042, 0.35691999999999996, 0.36217, 0.44092, 0.37749, 0.34421999999999997, 0.38923, 0.18117, 0.12140999999999999, 0.20908000000000002, 0.073102, 0.12792, 0.20967, 0.10842, 0.096872, 0.25369]
[-0.77037, -0.8646, -1.2169, -1.1221, -1.2971, -1.0562, -1.2684, -1.4927, -1.4999, -1.643, -1.5111, -1.8409, -1.5926, -1.7653, -2.0782, -1.8019999999999998, -2.03, -2.0198, -1.9856, -1.7245, -1.6564, -1.5422, -1.11, -0.71824, -0.30093000000000003, -0.23294, 0.30359, 0.46398, 0.49706000000000006, 0.86969, 0.93148, 0.77661, 0.9572299999999999, 0.8427100000000001, 0.5999800000000001, 0.8315799999999999, 0.48951000000000006, 0.3745, 0.7258100000000001, 0.5642699999999999, 0.66096, 0.52405, 0.46671999999999997, 0.61706, 0.6849, 0.46143, 0.5070100000000001, 0.5428]
